TEMP K,LIQUID RHOMX kmol/cum,LIQUID CPMX kJ/kmol-K,LIQUID MUMX cP,LIQUID HMX kJ/kmol,LIQUID TBUB K,LIQUID KMX kW/m-K,Composition
293.15,54.5951,74.6121,1.34991,-287258.0,365.231,0.00060659,0.05
294.15,54.5836,74.6009,1.31805,-287184.0,365.231,0.000608036,0.05
295.15,54.5716,74.5909,1.28724,-287109.0,365.231,0.000609469,0.05
296.15,54.559,74.582,1.25743,-287035.0,365.231,0.000610889,0.05
297.15,54.5459,74.574,1.22858,-286960.0,365.231,0.000612296,0.05
298.15,54.5323,74.567,1.20066,-286885.0,365.231,0.00061369,0.05
299.15,54.5181,74.5609,1.17363,-286811.0,365.231,0.000615072,0.05
300.15,54.5034,74.5556,1.14746,-286736.0,365.231,0.00061644,0.05
301.15,54.4882,74.551,1.12211,-286662.0,365.231,0.000617796,0.05
302.15,54.4726,74.5472,1.09755,-286587.0,365.231,0.000619139,0.05
303.15,54.4565,74.5441,1.07375,-286513.0,365.231,0.00062047,0.05
304.15,54.4399,74.5416,1.05068,-286438.0,365.231,0.000621787,0.05
305.15,54.4228,74.5397,1.02832,-286364.0,365.231,0.000623092,0.05
306.15,54.4053,74.5384,1.00664,-286289.0,365.231,0.000624384,0.05
307.15,54.3873,74.5375,0.985614,-286214.0,365.231,0.000625664,0.05
308.15,54.3689,74.5372,0.965217,-286140.0,365.231,0.00062693,0.05
309.15,54.3501,74.5374,0.945427,-286065.0,365.231,0.000628184,0.05
310.15,54.3308,74.538,0.926221,-285991.0,365.231,0.000629425,0.05
311.15,54.3111,74.539,0.907579,-285916.0,365.231,0.000630654,0.05
312.15,54.291,74.5404,0.88948,-285842.0,365.231,0.00063187,0.05
313.15,54.2705,74.5422,0.871905,-285767.0,365.231,0.000633074,0.05
314.15,54.2496,74.5444,0.854836,-285693.0,365.231,0.000634265,0.05
315.15,54.2283,74.547,0.838255,-285620.0,365.232,0.000635443,0.05
316.15,54.2066,74.5498,0.822144,-285540.0,365.232,0.000636609,0.05
317.15,54.1846,74.553,0.806487,-285470.0,365.232,0.000637762,0.05
318.15,54.1621,74.5565,0.791269,-285390.0,365.232,0.000638902,0.05
319.15,54.1393,74.5603,0.776475,-285320.0,365.232,0.000640031,0.05
320.15,54.1161,74.5644,0.762089,-285250.0,365.232,0.000641146,0.05
321.15,54.0925,74.5687,0.748099,-285170.0,365.232,0.000642249,0.05
322.15,54.0686,74.5734,0.73449,-285100.0,365.232,0.00064334,0.05
323.15,54.0443,74.5783,0.72125,-285020.0,365.232,0.000644418,0.05
324.15,54.0197,74.5835,0.708367,-284950.0,365.232,0.000645484,0.05
325.15,53.9947,74.5889,0.695829,-284870.0,365.232,0.000646538,0.05
326.15,53.9694,74.5946,0.683624,-284800.0,365.232,0.000647579,0.05
327.15,53.9437,74.6006,0.671742,-284720.0,365.232,0.000648607,0.05
328.15,53.9177,74.6068,0.660172,-284650.0,365.232,0.000649623,0.05
329.15,53.8914,74.6132,0.648903,-284570.0,365.232,0.000650627,0.05
330.15,53.8647,74.6199,0.637927,-284500.0,365.232,0.000651619,0.05
331.15,53.8377,74.6269,0.627234,-284420.0,365.232,0.000652598,0.05
332.15,53.8103,74.6341,0.616814,-284350.0,365.232,0.000653565,0.05
333.15,53.7827,74.6416,0.60666,-284280.0,365.232,0.000654519,0.05
334.15,53.7547,74.6494,0.596763,-284200.0,365.232,0.000655462,0.05
335.15,53.7264,74.6574,0.587114,-284130.0,365.232,0.000656392,0.05
336.15,53.6978,74.6656,0.577706,-284050.0,365.232,0.00065731,0.05
337.15,53.6689,74.6742,0.568532,-283980.0,365.232,0.000658215,0.05
338.15,53.6397,74.683,0.559584,-283900.0,365.232,0.000659109,0.05
339.15,53.6102,74.692,0.550856,-283830.0,365.232,0.00065999,0.05
340.15,53.5804,74.7014,0.542341,-283750.0,365.232,0.000660859,0.05
341.15,53.5503,74.711,0.534032,-283680.0,365.232,0.000661715,0.05
342.15,53.5199,74.721,0.525923,-283600.0,365.232,0.00066256,0.05
343.15,53.4892,74.7312,0.518008,-283530.0,365.232,0.000663392,0.05
344.15,53.4582,74.7417,0.510282,-283450.0,365.232,0.000664213,0.05
345.15,53.4269,74.7525,0.502738,-283380.0,365.232,0.000665021,0.05
346.15,53.3954,74.7636,0.495372,-283300.0,365.232,0.000665817,0.05
347.15,53.3635,74.7751,0.488178,-283230.0,365.232,0.000666601,0.05
348.15,53.3314,74.7868,0.481152,-283160.0,365.232,0.000667373,0.05
349.15,53.299,74.7989,0.474288,-283080.0,365.232,0.000668133,0.05
350.15,53.2664,74.8113,0.467581,-283010.0,365.232,0.000668881,0.05
351.15,53.2334,74.8241,0.461028,-282930.0,365.232,0.000669617,0.05
352.15,53.2002,74.8372,0.454623,-282860.0,365.232,0.00067034,0.05
353.15,53.1667,74.8506,0.448364,-282780.0,365.232,0.000671052,0.05
354.15,53.133,74.8644,0.442244,-282710.0,365.232,0.000671752,0.05
355.15,53.099,74.8785,0.436262,-282630.0,365.232,0.00067244,0.05
356.15,53.0647,74.893,0.430412,-282560.0,365.232,0.000673115,0.05
357.15,53.0302,74.9079,0.424691,-282480.0,365.232,0.000673779,0.05
358.15,52.9954,74.9231,0.419096,-282410.0,365.232,0.000674431,0.05
359.15,52.9603,74.9388,0.413623,-282330.0,365.232,0.000675071,0.05
360.15,52.925,74.9548,0.408268,-282260.0,365.232,0.000675699,0.05
361.15,52.8895,74.9712,0.40303,-282180.0,365.232,0.000676316,0.05
362.15,52.8537,74.988,0.397903,-282110.0,365.232,0.00067692,0.05
363.15,52.8176,75.0052,0.392887,-282030.0,365.232,0.000677512,0.05
364.15,52.7813,75.0228,0.387976,-281960.0,365.232,0.000678093,0.05
365.15,52.7447,75.0796,0.383169,-281880.0,365.232,0.000678662,0.05
366.15,51.223,73.8013,0.600956,-284080.0,366.15,0.000691745,0.05
367.15,49.7274,72.465,0.959606,-286380.0,367.15,0.000704299,0.05
368.15,48.3744,71.1854,1.49767,-288580.0,368.15,0.000715424,0.05
369.15,47.1452,69.9597,2.28726,-290700.0,369.15,0.000725348,0.05
370.15,46.0245,68.7855,3.42182,-292720.0,370.15,0.000734252,0.05
371.15,44.9989,67.6603,5.01985,-294660.0,371.15,0.000742284,0.05
372.15,44.0575,66.5817,7.22831,-296510.0,372.15,0.000749561,0.05
373.15,43.1909,65.5476,10.2257,-298290.0,373.15,0.000756184,0.05
374.15,42.3909,64.556,14.2246,-300000.0,374.15,0.000762234,0.05
375.15,41.6506,63.6049,19.473,-301640.0,375.15,0.000767781,0.05
376.15,40.9639,62.6923,26.2549,-303210.0,376.15,0.000772882,0.05
377.15,40.3256,61.8166,34.8893,-304710.0,377.15,0.000777587,0.05
378.15,39.731,60.976,45.7282,-306160.0,378.15,0.00078194,0.05
379.15,39.1761,60.169,59.1525,-307540.0,379.15,0.000785977,0.05
380.15,38.6575,59.3941,75.5668,-308880.0,380.15,0.00078973,0.05
381.15,38.1717,58.6497,95.3931,-310150.0,381.15,0.000793227,0.05
382.15,37.7162,57.9346,119.063,-311380.0,382.15,0.000796492,0.05
383.15,37.2884,57.2475,147.008,-312560.0,383.15,0.000799548,0.05
293.15,53.7408,73.9352,1.82144,-288392.0,365.705,0.000614352,0.1
294.15,53.7296,73.9244,1.77673,-288318.0,365.705,0.000615779,0.1
295.15,53.7179,73.9148,1.73352,-288244.0,365.705,0.000617193,0.1
296.15,53.7057,73.9061,1.69175,-288170.0,365.705,0.000618594,0.1
297.15,53.6929,73.8985,1.65137,-288096.0,365.705,0.000619982,0.1
298.15,53.6797,73.8918,1.61231,-288022.0,365.705,0.000621358,0.1
299.15,53.666,73.886,1.57453,-287948.0,365.705,0.00062272,0.1
300.15,53.6518,73.8809,1.53798,-287874.0,365.705,0.00062407,0.1
301.15,53.6371,73.8766,1.5026,-287801.0,365.705,0.000625407,0.1
302.15,53.6219,73.8731,1.46835,-287727.0,365.705,0.000626731,0.1
303.15,53.6063,73.8701,1.43519,-287653.0,365.705,0.000628043,0.1
304.15,53.5902,73.8679,1.40307,-287579.0,365.705,0.000629341,0.1
305.15,53.5737,73.8662,1.37196,-287505.0,365.705,0.000630627,0.1
306.15,53.5568,73.865,1.34182,-287431.0,365.705,0.000631901,0.1
307.15,53.5394,73.8644,1.31261,-287357.0,365.705,0.000633162,0.1
308.15,53.5217,73.8642,1.28429,-287284.0,365.705,0.00063441,0.1
309.15,53.5035,73.8646,1.25684,-287210.0,365.705,0.000635645,0.1
310.15,53.4849,73.8653,1.23021,-287136.0,365.705,0.000636868,0.1
311.15,53.4659,73.8665,1.20439,-287062.0,365.705,0.000638078,0.1
312.15,53.4465,73.868,1.17934,-286988.0,365.705,0.000639276,0.1
313.15,53.4268,73.87,1.15503,-286914.0,365.705,0.000640461,0.1
314.15,53.4066,73.8723,1.13143,-286840.0,365.705,0.000641633,0.1
315.15,53.3861,73.875,1.10853,-286766.0,365.705,0.000642794,0.1
316.15,53.3652,73.8779,1.08629,-286693.0,365.705,0.000643941,0.1
317.15,53.3439,73.8812,1.06469,-286619.0,365.705,0.000645077,0.1
318.15,53.3223,73.8848,1.04371,-286545.0,365.705,0.0006462,0.1
319.15,53.3003,73.8886,1.02333,-286471.0,365.705,0.00064731,0.1
320.15,53.2779,73.8928,1.00352,-286397.0,365.705,0.000648408,0.1
321.15,53.2552,73.8972,0.984275,-286323.0,365.705,0.000649494,0.1
322.15,53.2322,73.9019,0.965565,-286249.0,365.705,0.000650567,0.1
323.15,53.2088,73.9069,0.947373,-286175.0,365.705,0.000651628,0.1
324.15,53.1851,73.9121,0.929683,-286101.0,365.705,0.000652677,0.1
325.15,53.1611,73.9176,0.912478,-286027.0,365.705,0.000653713,0.1
326.15,53.1367,73.9234,0.895741,-285954.0,365.705,0.000654737,0.1
327.15,53.112,73.9293,0.879456,-285880.0,365.705,0.000655749,0.1
328.15,53.087,73.9356,0.863609,-285806.0,365.705,0.000656749,0.1
329.15,53.0616,73.9421,0.848185,-285732.0,365.705,0.000657737,0.1
330.15,53.036,73.9488,0.833171,-285658.0,365.705,0.000658712,0.1
331.15,53.01,73.9558,0.818552,-285584.0,365.705,0.000659675,0.1
332.15,52.9837,73.963,0.804316,-285510.0,365.705,0.000660626,0.1
333.15,52.9571,73.9705,0.79045,-285436.0,365.705,0.000661565,0.1
334.15,52.9302,73.9782,0.776944,-285362.0,365.705,0.000662492,0.1
335.15,52.903,73.9862,0.763785,-285288.0,365.705,0.000663407,0.1
336.15,52.8755,73.9945,0.750961,-285214.0,365.705,0.000664309,0.1
337.15,52.8477,74.003,0.738464,-285140.0,365.705,0.0006652,0.1
338.15,52.8197,74.0118,0.726282,-285066.0,365.705,0.000666079,0.1
339.15,52.7913,74.0208,0.714406,-284992.0,365.705,0.000666945,0.1
340.15,52.7627,74.0302,0.702825,-284918.0,365.705,0.0006678,0.1
341.15,52.7337,74.0397,0.691532,-284844.0,365.705,0.000668642,0.1
342.15,52.7045,74.0496,0.680517,-284770.0,365.705,0.000669473,0.1
343.15,52.675,74.0598,0.669772,-284696.0,365.705,0.000670292,0.1
344.15,52.6453,74.0703,0.659288,-284622.0,365.705,0.000671098,0.1
345.15,52.6152,74.081,0.649058,-284548.0,365.705,0.000671893,0.1
346.15,52.5849,74.092,0.639073,-284474.0,365.705,0.000672676,0.1
347.15,52.5543,74.1034,0.629328,-284400.0,365.705,0.000673447,0.1
348.15,52.5235,74.1151,0.619814,-284325.0,365.705,0.000674207,0.1
349.15,52.4923,74.1271,0.610525,-284251.0,365.705,0.000674954,0.1
350.15,52.461,74.1394,0.601454,-284177.0,365.705,0.00067569,0.1
351.15,52.4293,74.152,0.592594,-284103.0,365.705,0.000676413,0.1
352.15,52.3974,74.165,0.583941,-284029.0,365.705,0.000677125,0.1
353.15,52.3653,74.1783,0.575487,-283955.0,365.705,0.000677826,0.1
354.15,52.3329,74.192,0.567227,-283881.0,365.705,0.000678514,0.1
355.15,52.3002,74.206,0.559155,-283806.0,365.705,0.000679191,0.1
356.15,52.2673,74.2204,0.551267,-283732.0,365.705,0.000679856,0.1
357.15,52.2341,74.2351,0.543557,-283658.0,365.705,0.000680509,0.1
358.15,52.2007,74.2502,0.536019,-283584.0,365.705,0.000681151,0.1
359.15,52.1671,74.2657,0.528649,-283509.0,365.705,0.000681781,0.1
360.15,52.1332,74.2815,0.521443,-283435.0,365.705,0.000682399,0.1
361.15,52.099,74.2977,0.514396,-283361.0,365.705,0.000683006,0.1
362.15,52.0646,74.3144,0.507503,-283287.0,365.705,0.000683601,0.1
363.15,52.03,74.3314,0.50076,-283212.0,365.705,0.000684184,0.1
364.15,51.9951,74.3488,0.494164,-283138.0,365.705,0.000684756,0.1
365.15,51.9601,74.4047,0.487709,-283064.0,365.705,0.000685316,0.1
366.15,51.2229,73.8013,0.600956,-284080.0,366.15,0.000691745,0.1
367.15,49.7273,72.465,0.959606,-286381.0,367.15,0.000704298,0.1
368.15,48.3743,71.1854,1.49767,-288585.0,368.15,0.000715424,0.1
369.15,47.1452,69.9597,2.28726,-290695.0,369.15,0.000725348,0.1
370.15,46.0244,68.7855,3.42182,-292717.0,370.15,0.000734252,0.1
371.15,44.9989,67.6602,5.01985,-294655.0,371.15,0.000742284,0.1
372.15,44.0575,66.5817,7.22831,-296512.0,372.15,0.000749561,0.1
373.15,43.1908,65.5476,10.2257,-298292.0,373.15,0.000756184,0.1
374.15,42.3908,64.556,14.2246,-299999.0,374.15,0.000762234,0.1
375.15,41.6505,63.6049,19.473,-301635.0,375.15,0.000767781,0.1
376.15,40.9638,62.6923,26.2549,-303205.0,376.15,0.000772882,0.1
377.15,40.3255,61.8166,34.8893,-304712.0,377.15,0.000777587,0.1
378.15,39.7309,60.976,45.7282,-306157.0,378.15,0.00078194,0.1
379.15,39.1761,60.169,59.1525,-307544.0,379.15,0.000785977,0.1
380.15,38.6574,59.3941,75.5668,-308875.0,380.15,0.00078973,0.1
381.15,38.1717,58.6497,95.3931,-310154.0,381.15,0.000793227,0.1
382.15,37.7162,57.9346,119.063,-311381.0,382.15,0.000796492,0.1
383.15,37.2883,57.2475,147.008,-312560.0,383.15,0.000799548,0.1
293.15,53.389,73.6501,2.06636,-288869.0,365.907,0.000617541,0.12
294.15,53.3779,73.6395,2.01481,-288795.0,365.907,0.00061896,0.12
295.15,53.3664,73.63,1.96502,-288722.0,365.907,0.000620366,0.12
296.15,53.3543,73.6215,1.9169,-288648.0,365.907,0.000621759,0.12
297.15,53.3417,73.614,1.87039,-288575.0,365.907,0.000623139,0.12
298.15,53.3286,73.6075,1.82543,-288501.0,365.907,0.000624506,0.12
299.15,53.315,73.6018,1.78195,-288427.0,365.907,0.000625861,0.12
300.15,53.301,73.5968,1.73989,-288354.0,365.907,0.000627202,0.12
301.15,53.2865,73.5926,1.6992,-288280.0,365.907,0.000628531,0.12
302.15,53.2716,73.5892,1.65983,-288207.0,365.907,0.000629847,0.12
303.15,53.2562,73.5864,1.62171,-288133.0,365.907,0.000631151,0.12
304.15,53.2403,73.5841,1.58481,-288059.0,365.907,0.000632441,0.12
305.15,53.2241,73.5825,1.54908,-287986.0,365.907,0.000633719,0.12
306.15,53.2074,73.5815,1.51446,-287912.0,365.907,0.000634984,0.12
307.15,53.1903,73.5809,1.48093,-287839.0,365.907,0.000636237,0.12
308.15,53.1727,73.5808,1.44844,-287765.0,365.907,0.000637477,0.12
309.15,53.1548,73.5813,1.41694,-287692.0,365.907,0.000638705,0.12
310.15,53.1365,73.582,1.38641,-287618.0,365.907,0.000639919,0.12
311.15,53.1178,73.5833,1.3568,-287544.0,365.907,0.000641122,0.12
312.15,53.0987,73.5849,1.32808,-287471.0,365.907,0.000642312,0.12
313.15,53.0792,73.5869,1.30023,-287397.0,365.907,0.000643489,0.12
314.15,53.0594,73.5892,1.2732,-287324.0,365.907,0.000644654,0.12
315.15,53.0392,73.5919,1.24697,-287250.0,365.907,0.000645806,0.12
316.15,53.0186,73.5949,1.22151,-287176.0,365.907,0.000646946,0.12
317.15,52.9976,73.5982,1.1968,-287103.0,365.907,0.000648074,0.12
318.15,52.9763,73.6019,1.17279,-287029.0,365.907,0.000649189,0.12
319.15,52.9547,73.6058,1.14948,-286956.0,365.907,0.000650292,0.12
320.15,52.9327,73.61,1.12684,-286882.0,365.907,0.000651383,0.12
321.15,52.9104,73.6145,1.10483,-286808.0,365.907,0.000652461,0.12
322.15,52.8877,73.6192,1.08345,-286735.0,365.907,0.000653527,0.12
323.15,52.8647,73.6242,1.06267,-286661.0,365.907,0.000654581,0.12
324.15,52.8413,73.6294,1.04246,-286588.0,365.907,0.000655622,0.12
325.15,52.8177,73.6349,1.02281,-286514.0,365.907,0.000656651,0.12
326.15,52.7937,73.6407,1.00371,-286440.0,365.907,0.000657668,0.12
327.15,52.7694,73.6467,0.985123,-286367.0,365.907,0.000658673,0.12
328.15,52.7448,73.6529,0.967043,-286293.0,365.907,0.000659666,0.12
329.15,52.7198,73.6594,0.949449,-286219.0,365.907,0.000660647,0.12
330.15,52.6946,73.6662,0.932327,-286146.0,365.907,0.000661615,0.12
331.15,52.669,73.6732,0.915661,-286072.0,365.907,0.000662571,0.12
332.15,52.6432,73.6804,0.899436,-285998.0,365.907,0.000663516,0.12
333.15,52.617,73.6879,0.883637,-285925.0,365.907,0.000664448,0.12
334.15,52.5905,73.6956,0.868251,-285851.0,365.907,0.000665368,0.12
335.15,52.5638,73.7036,0.853264,-285777.0,365.907,0.000666276,0.12
336.15,52.5368,73.7119,0.838664,-285704.0,365.907,0.000667173,0.12
337.15,52.5094,73.7204,0.824438,-285630.0,365.907,0.000668057,0.12
338.15,52.4818,73.7291,0.810575,-285556.0,365.907,0.000668929,0.12
339.15,52.4539,73.7382,0.797063,-285482.0,365.907,0.00066979,0.12
340.15,52.4257,73.7475,0.78389,-285409.0,365.907,0.000670638,0.12
341.15,52.3973,73.7571,0.771048,-285335.0,365.907,0.000671475,0.12
342.15,52.3686,73.7669,0.758525,-285261.0,365.907,0.000672299,0.12
343.15,52.3395,73.7771,0.746311,-285187.0,365.907,0.000673112,0.12
344.15,52.3103,73.7875,0.734397,-285114.0,365.907,0.000673913,0.12
345.15,52.2807,73.7982,0.722775,-285040.0,365.907,0.000674703,0.12
346.15,52.2509,73.8093,0.711434,-284966.0,365.907,0.00067548,0.12
347.15,52.2208,73.8206,0.700368,-284892.0,365.907,0.000676246,0.12
348.15,52.1905,73.8322,0.689566,-284818.0,365.907,0.000677,0.12
349.15,52.1599,73.8441,0.679022,-284744.0,365.907,0.000677742,0.12
350.15,52.1291,73.8564,0.668728,-284671.0,365.907,0.000678472,0.12
351.15,52.098,73.869,0.658677,-284597.0,365.907,0.000679191,0.12
352.15,52.0666,73.8819,0.648861,-284523.0,365.907,0.000679898,0.12
353.15,52.035,73.8952,0.639274,-284449.0,365.907,0.000680593,0.12
354.15,52.0031,73.9088,0.629909,-284375.0,365.907,0.000681277,0.12
355.15,51.971,73.9228,0.62076,-284301.0,365.907,0.000681949,0.12
356.15,51.9386,73.9371,0.61182,-284227.0,365.907,0.00068261,0.12
357.15,51.906,73.9517,0.603083,-284153.0,365.907,0.000683258,0.12
358.15,51.8732,73.9668,0.594544,-284079.0,365.907,0.000683896,0.12
359.15,51.8401,73.9822,0.586197,-284005.0,365.907,0.000684521,0.12
360.15,51.8068,73.998,0.578037,-283931.0,365.907,0.000685136,0.12
361.15,51.7732,74.0141,0.570059,-283857.0,365.907,0.000685738,0.12
362.15,51.7394,74.0307,0.562257,-283783.0,365.907,0.000686329,0.12
363.15,51.7054,74.0476,0.554626,-283709.0,365.907,0.000686909,0.12
364.15,51.6711,74.065,0.547162,-283635.0,365.907,0.000687477,0.12
365.15,51.6366,74.1205,0.539861,-283561.0,365.907,0.000688034,0.12
366.15,51.2229,73.8013,0.600956,-284080.0,366.15,0.000691745,0.12
367.15,49.7273,72.465,0.959606,-286381.0,367.15,0.000704298,0.12
368.15,48.3743,71.1854,1.49767,-288585.0,368.15,0.000715424,0.12
369.15,47.1452,69.9597,2.28726,-290695.0,369.15,0.000725348,0.12
370.15,46.0244,68.7855,3.42182,-292717.0,370.15,0.000734252,0.12
371.15,44.9989,67.6602,5.01985,-294655.0,371.15,0.000742284,0.12
372.15,44.0575,66.5817,7.22831,-296512.0,372.15,0.000749561,0.12
373.15,43.1908,65.5476,10.2257,-298292.0,373.15,0.000756184,0.12
374.15,42.3908,64.556,14.2246,-299999.0,374.15,0.000762234,0.12
375.15,41.6505,63.6049,19.473,-301635.0,375.15,0.000767781,0.12
376.15,40.9638,62.6923,26.2549,-303205.0,376.15,0.000772882,0.12
377.15,40.3255,61.8166,34.8893,-304712.0,377.15,0.000777587,0.12
378.15,39.7309,60.976,45.7282,-306157.0,378.15,0.00078194,0.12
379.15,39.1761,60.169,59.1525,-307544.0,379.15,0.000785977,0.12
380.15,38.6574,59.3941,75.5668,-308875.0,380.15,0.00078973,0.12
381.15,38.1717,58.6497,95.3931,-310154.0,381.15,0.000793227,0.12
382.15,37.7162,57.9346,119.063,-311381.0,382.15,0.000796492,0.12
383.15,37.2883,57.2475,147.008,-312560.0,383.15,0.000799548,0.12
293.15,52.8499,73.206,2.51515,-289613.0,366.226,0.000622419,0.15
294.15,52.8391,73.1957,2.45086,-289540.0,366.226,0.000623825,0.15
295.15,52.8277,73.1864,2.38878,-289466.0,366.226,0.000625218,0.15
296.15,52.8159,73.1781,2.32882,-289393.0,366.226,0.000626598,0.15
297.15,52.8035,73.1709,2.2709,-289320.0,366.226,0.000627965,0.15
298.15,52.7907,73.1645,2.21493,-289247.0,366.226,0.00062932,0.15
299.15,52.7774,73.159,2.16084,-289174.0,366.226,0.000630661,0.15
300.15,52.7636,73.1542,2.10854,-289101.0,366.226,0.00063199,0.15
301.15,52.7494,73.1502,2.05797,-289027.0,366.226,0.000633306,0.15
302.15,52.7348,73.1469,2.00906,-288954.0,366.226,0.000634609,0.15
303.15,52.7197,73.1442,1.96174,-288881.0,366.226,0.0006359,0.15
304.15,52.7042,73.1422,1.91595,-288808.0,366.226,0.000637178,0.15
305.15,52.6883,73.1407,1.87163,-288735.0,366.226,0.000638443,0.15
306.15,52.672,73.1397,1.82872,-288662.0,366.226,0.000639696,0.15
307.15,52.6552,73.1393,1.78718,-288589.0,366.226,0.000640936,0.15
308.15,52.6381,73.1393,1.74693,-288515.0,366.226,0.000642163,0.15
309.15,52.6206,73.1398,1.70795,-288442.0,366.226,0.000643378,0.15
310.15,52.6027,73.1408,1.67017,-288369.0,366.226,0.00064458,0.15
311.15,52.5844,73.1421,1.63356,-288296.0,366.226,0.00064577,0.15
312.15,52.5658,73.1438,1.59806,-288223.0,366.226,0.000646948,0.15
313.15,52.5467,73.1459,1.56365,-288150.0,366.226,0.000648113,0.15
314.15,52.5273,73.1483,1.53027,-288077.0,366.226,0.000649265,0.15
315.15,52.5076,73.151,1.4979,-288003.0,366.226,0.000650406,0.15
316.15,52.4875,73.1541,1.46649,-287930.0,366.226,0.000651534,0.15
317.15,52.4671,73.1575,1.43601,-287857.0,366.226,0.000652649,0.15
318.15,52.4463,73.1612,1.40642,-287784.0,366.226,0.000653753,0.15
319.15,52.4251,73.1651,1.3777,-287711.0,366.226,0.000654844,0.15
320.15,52.4037,73.1694,1.34981,-287638.0,366.226,0.000655922,0.15
321.15,52.3819,73.1739,1.32273,-287564.0,366.226,0.000656989,0.15
322.15,52.3598,73.1786,1.29642,-287491.0,366.226,0.000658043,0.15
